Omega,P_E_centered,P_A_centered,P_B_centered,P_C_centered,P_total_centered
0.001,6.774996331407686e-10,6.422119948979449e-10,1.8215987929442824e-09,1.7634347992906255e-09,4.904745220273621e-09
0.01329390471072326,1.1973308861505824e-07,1.1349677823670713e-07,3.2192733377693476e-07,3.1164813366891734e-07,8.668053342976175e-07
0.02558780942144652,4.435833872773425e-07,4.20479299255128e-07,1.1926662906055334e-06,1.1545842373124273e-06,3.211313214450431e-06
0.03788171413216978,9.722283826105778e-07,9.215897595622993e-07,2.6140384687132768e-06,2.530571758824289e-06,7.038428369710444e-06
0.05017561884289304,1.7056680533684298e-06,1.6168281338621428e-06,4.586043867209189e-06,4.439610719536763e-06,1.2348150773976525e-05
0.0624695235536163,2.6439023700806893e-06,2.506194387086094e-06,7.108682484792214e-06,6.881701149105428e-06,1.9140480391064425e-05
0.07476342826433956,3.786931295063794e-06,3.5896884743347394e-06,1.0181954319829215e-05,9.856843085401361e-06,2.741541717462911e-05
0.08705733297506282,5.134754782379591e-06,4.867310340942021e-06,1.3805859370430167e-05,1.3365036574633106e-05,3.7172961068384884e-05
0.09935123768578608,6.687372777881545e-06,6.339059922432788e-06,1.7980397634212612e-05,1.7406281671238507e-05,4.8413112005765454e-05
0.11164514239650933,8.44478521922147e-06,8.004937144540843e-06,2.2705569108449572e-05,2.1980578437885558e-05,6.113586991009744e-05
0.1239390471072326,1.0406992035728902e-05,9.8649419231885e-06,2.7981373790144597e-05,2.7087926945660593e-05,7.53412346947226e-05
0.13623295181795586,1.2573993148612265e-05,1.1919074164525348e-05,3.380781167591841e-05,3.272832727369865e-05,9.102920626275466e-05
0.1485268565286791,1.4945788470789036e-05,1.4167333764892304e-05,4.018488276201854e-05,3.8901779509667575e-05,0.00010819978450736745
0.16082076123940237,1.752237790696758e-05,1.6609720610837375e-05,4.7112587044319845e-05,4.560828374931165e-05,0.00012685296931143645
0.17311466595012565,2.030376135363297e-05,1.9246234579066348e-05,5.459092451841015e-05,5.2847840096674406e-05,0.00014698876054778387
0.1854085706608489,2.3289938699025764e-05,2.2076875536621756e-05,6.261989517943811e-05,6.062044866423597e-05,0.00016860715807932159
0.19770247537157215,2.6480909823156116e-05,2.5101643340585946e-05,7.11994990222527e-05,6.89261095725181e-05,0.00019170816175851288
0.2099963800822954,2.9876674597896204e-05,2.8320537838297126e-05,8.032973604141043e-05,7.77648229503926e-05,0.00021629177142799637
0.22229028479301866,3.34772328866789e-05,3.173355886741307e-05,9.001060623091318e-05,8.713658893515432e-05,0.00024235798692015948
0.23458418950374194,3.728258454500583e-05,3.534070625562059e-05,0.00010024210958454879,9.70414076722186e-05,0.0002699068080573938
0.2468780942144652,4.129272941985396e-05,3.914197982095469e-05,0.00011102424609604658,0.00010747927931521732,0.00029893823465207257
0.25917199892518844,4.5507667350169974e-05,4.3137379371441465e-05,0.00012235701575810434,0.00011845020402630658,0.00032945226650602237
0.2714659036359117,4.9927398166517245e-05,4.732690470564641e-05,0.00013424041856342656,0.00012995418197538547,0.0003614489034109757
0.28375980834663495,5.455192169143854e-05,5.171055561211138e-05,0.0001466744545046122,0.0001419912133414409,0.00039492814514960307
0.2960537130573582,5.93812377390986e-05,5.628833186951553e-05,0.00015965912357357207,0.00015456129831106064,0.00042988999149324686
0.3083476177680815,6.441534611540663e-05,6.106023324693524e-05,0.00017319442576189462,0.00016766443707938997,0.0004663344422036264
0.32064152247880473,6.965424661828079e-05,6.602625950357512e-05,0.0001872803610611057,0.00018130062984971217,0.0005042614970326737
0.332935427189528,7.509793903701497e-05,7.118641038880943e-05,0.0002019169294617743,0.00019546987683367794,0.0005436711557212766
0.3452293319002513,8.074642315303594e-05,7.654068564221635e-05,0.00021710413095481982,0.00021017217825123173,0.0005845634180013039
0.3575232366109745,8.659969873928136e-05,8.208908499359236e-05,0.00023284196553032823,0.00022540753433046806,0.00062693828359367
0.3698171413216978,9.265776556069888e-05,8.783160816289309e-05,0.0002491304331782316,0.00024117594530807194,0.0006707957522098956
0.382111046032421,9.892062337388564e-05,9.376825486065222e-05,0.0002659695338881436,0.0002574774114283178,0.0007161358235509992
0.3944049507431443,0.00010538827192708616,9.989902478673877e-05,0.0002833592676488225,0.00027431193294451186,0.0007629584973071593
0.4066988554538676,0.00011206071096050846,0.00010622391763236944,0.00030129963444952486,0.0002916795101179339,0.0008112637731603366
0.4189927601645908,0.00011893794020644679,0.00011274293307786989,0.0003197906342786686,0.00030958014321778285,0.0008610516507807682
0.4312866648753141,0.00012601995938792818,0.00011945607079451827,0.00033883226712425784,0.0003280138325223063,0.0009123221298290105
0.4435805695860373,0.000133306768220648,0.00012636333044345428,0.0003584245329742895,0.0003469805783176351,0.0009650752099560269
0.4558744742967606,0.00014079836641220267,0.00013346471167624313,0.000378567431815551,0.00036648038089726536,0.0010193108908012622
0.46816837900748387,0.00014849475366099195,0.00014076021413442883,0.00039926096363593176,0.0003865132405653086,0.0010750291719966612
0.4804622837182071,0.00015639592965856127,0.00014824983744981025,0.00042050512842180325,0.00040707915763122445,0.001132230053161399
0.4927561884289304,0.0001645018940867864,0.00015593358124451769,0.0004422999261590479,0.00042817813241481314,0.0011909135339051651
0.5050500931396537,0.0001728126466201565,0.00016381144513075662,0.0004646453568340632,0.00044981016524354517,0.0012510796138285214
0.5173439978503769,0.00018132818692505773,0.0001718834287109372,0.0004875414204323143,0.0004719752564527098,0.0013127282925210191
0.5296379025611001,0.00019004851465889965,0.00018014953157781556,0.0005109881169395168,0.0004946734063871288,0.0013758595695633608
0.5419318072718234,0.00019897362947186403,0.00018860975331444257,0.0005349854463402504,0.0005179046153984567,0.0014404734445250139
0.5542257119825467,0.00020810353100499186,0.00019726409349344,0.0005595334086190672,0.0005416688838470995,0.0015065699169645986
0.5665196166932699,0.00021743821889133052,0.00020611255167825104,0.0005846320037600522,0.0005659662121019942,0.0015741489864316278
0.5788135214039932,0.00022697769275637194,0.00021515512742271138,0.0006102812317473245,0.0005907966005406359,0.0016432106524670437
0.5911074261147164,0.00023672195221634723,0.00022439182027002465,0.0006364810925646202,0.0006161600495479788,0.0017137549145989708
0.6034013308254397,0.00024667099687995163,0.00023382262975430107,0.0006632315861947306,0.0006420565595177752,0.0017857817723467586
0.615695235536163,0.00025682482634743157,0.00024344755539941045,0.0006905327126202074,0.0006684861308515268,0.0018592912252185763
0.6279891402468862,0.00026718344021106096,0.00025326659671995793,0.0007183844718243058,0.000695448763960213,0.0019342832727155376
0.6402830449576095,0.0002777468380541964,0.0002632797532201153,0.0007467868637880714,0.0007229444592610788,0.0020107579143234617
0.6525769496683328,0.0002885150194528699,0.0002734870243949217,0.0007757398884945033,0.0007509732171823252,0.0020887151495246202
0.664870854379056,0.0002994879839741634,0.00028388840972899795,0.0008052435459240208,0.0007795350381577214,0.0021681549777849037
0.6771647590897792,0.0003106657311775813,0.0002944839086980028,0.0008352978360580649,0.0008086299226310836,0.0022490773985647324
0.6894586638005026,0.00032204826061344924,0.00030527352076624713,0.0008659027588769926,0.0008382578710536086,0.0023314824113102976
0.7017525685112258,0.00033363557182472926,0.00031625724539006733,0.0008970583143609484,0.0008684188838856277,0.0024153700154613727
0.714046473221949,0.0003454276643462762,0.0003274350820150682,0.0009287645024908264,0.0008991129615945037,0.0025007402104466744
0.7263403779326723,0.0003574245377039505,0.0003388070300768898,0.0009610213232457157,0.0009303401046569698,0.0025875929956835257
0.7386342826433956,0.0003696261914154729,0.00035037308900221864,0.000993828776604541,0.0009621003135577631,0.0026759283705799957
0.7509281873541188,0.00038203262499113765,0.0003621332582064703,0.0010271868625467593,0.0009943935887893223,0.0027657463345336893
0.763222092064842,0.0003946438379322903,0.00037408753709706544,0.0010610955810508146,0.001027219930853799,0.002857046886933969
0.7755159967755654,0.0004074598297320499,0.0003862359250700365,0.0010955549320946943,0.001060579340259094,0.0029498300271558744
0.7878099014862886,0.0004204805998757248,0.00039857842151304074,0.00113056491565571,0.0010944718175238625,0.003044095754568338
0.8001038061970118,0.0004337061478401944,0.00041111502580302013,0.0011661255317127165,0.0011288973631746538,0.003139844068530585
0.8123977109077352,0.0004471364730942946,0.00042384573730706,0.0012022367802418568,0.0011638559777441364,0.003237074968387348
0.8246916156184584,0.00046077157509812506,0.0004367705553829037,0.0012388986612205393,0.0011993476617761477,0.0033357884534777156
0.8369855203291816,0.00047461145330430197,0.0004498894793781475,0.0012761111746240378,0.0012353724158195908,0.003435984523126078
0.849279425039905,0.0004886561071555391,0.0004632025086314541,0.0013138743204290516,0.0012719302404368101,0.0035376631766528546
0.8615733297506282,0.0005029055360891308,0.0004767096424700028,0.0013521880986128267,0.0013090211361930304,0.0036408244133649906
0.8738672344613514,0.0005173597395315865,0.0004904108802127033,0.001391052509148225,0.0013466451036627963,0.003745468232555311
0.8861611391720746,0.0005320187169027602,0.0005043062211677787,0.001430467552012845,0.0013848021434325621,0.003851594633515946
0.898455043882798,0.0005468824676129713,0.0005183956646346319,0.0014704332271781007,0.0014234922560928077,0.003959203615518512
0.9107489485935212,0.000561950991066689,0.0005326792099017305,0.0015109495346218404,0.0014627154422427648,0.004068295177833025
0.9230428533042444,0.0005772242866558991,0.000547156856249603,0.0015520164743139634,0.001502471702495333,0.004178869319714798
0.9353367580149677,0.0005927023537695809,0.0005618286029449512,0.0015936340462328594,0.0015427610374627873,0.004290926040410179
0.947630662725691,0.0006083851917841859,0.0005766944492498139,0.001635802250347561,0.0015835834477723014,0.004404465339153862
0.9599245674364142,0.0006242728000704913,0.0005917543944133324,0.0016785210866332762,0.0016249389340580822,0.004519487215175182
0.9722184721471375,0.0006403651779895993,0.0006070084376753448,0.0017217905550624127,0.0016668274969618801,0.004635991667689236
0.9845123768578607,0.0006566623248951636,0.0006224565782660475,0.0017656106556063716,0.0017092491371329674,0.004753978695900551
0.996806281568584,0.0006731642401324158,0.0006380988154059177,0.0018099813882366802,0.0017522038552287885,0.0048734482990038025
1.0091001862793072,0.0006898709230398174,0.0006539351483060074,0.0018549027529257472,0.001795691651916373,0.0049944004761879445
1.0213940909900303,0.0007067823729430018,0.0006699655761657826,0.0019003747496440487,0.0018397125278717267,0.0051168352266245595
1.0336879957007536,0.000723898589165144,0.0006861900981781719,0.0019463973783632764,0.0018842664837777974,0.00524075254948439
1.045981900411477,0.0007412195710177088,0.0007026087135236589,0.0019929706390533503,0.001929353520325804,0.005366152443920522
1.0582758051222,0.0007587453178051521,0.0007192214213735783,0.002040094531683877,0.0019749736382148934,0.005493034909077502
1.0705697098329234,0.000776475828822685,0.0007360282208888275,0.002087769056224665,0.002021126838151655,0.005621399944087833
1.0828636145436468,0.0007944111033580889,0.0007530291112231401,0.002135994212645722,0.0020678131208567625,0.005751247548083713
1.0951575192543699,0.0008125511406920012,0.0007702240915173813,0.002184770000914795,0.0021150324870492904,0.005882577720173468
1.1074514239650932,0.0008308959400942248,0.0007876131609027985,0.0022340964210029626,0.0021627849374648723,0.006015390459464858
1.1197453286758166,0.0008494455008273889,0.0008051963185045526,0.0022839734728743602,0.0022110704728452854,0.006149685765051587
1.1320392333865397,0.0008681998221481166,0.000822973563433774,0.0023344011565004856,0.0022598890939379375,0.0062854636360203135
1.144333138097263,0.0008871589033014089,0.000840944894792968,0.0023853794718475658,0.0023092408015004625,0.006422724071442405
1.1566270428079863,0.0009063227435259767,0.0008591103116753724,0.002436908418885008,0.00235912559630138,0.006561467070387737
1.1689209475187095,0.0009256913420523669,0.0008774698131655335,0.0024889879975753646,0.002409543479110156,0.006701692631903421
1.1812148522294328,0.0009452646981012464,0.0008960233983362184,0.0025416182078874428,0.002460494450714327,0.0068434007550392355
1.1935087569401561,0.0009650428108881578,0.0009147710662499992,0.0025947990497898355,0.002511978511900017,0.006986591438828009
1.2058026616508792,0.0009850256796169136,0.0009337128159628784,0.0026485305232444266,0.0025639956634682134,0.007131264682292433
1.2180965663616026,0.00100521330348441,0.0009528486465179228,0.0027028126282185936,0.002616545906228582,0.007277420484449508
1.230390471072326,0.0010256056816807752,0.0009721785569487321,0.0027576453646765997,0.002669629240990844,0.00742505884429695
1.242684375783049,0.0010462028133870747,0.000991702546280781,0.0028130287325847706,0.0027232456685823024,0.007574179760834929
1.2549782804937724,0.001067004697773286,0.001011420613529267,0.0028689627319050683,0.0027773951898355897,0.007724783233043212
1.2672721852044957,0.0010880113340072481,0.0010313327576983995,0.002925447362604146,0.0028320778055887464,0.00787686925989854
1.2795660899152188,0.001109222721242177,0.0010514389777837234,0.0029824826246433326,0.0028872935166921986,0.008030437840361431
1.2918599946259421,0.0011306388586268187,0.001071739272770144,0.0030400685179869406,0.002943042324001208,0.008185488973385112
1.3041538993366655,0.0011522597453002485,0.001092233641634156,0.0030982050425977033,0.002999324228383479,0.008342022657915588
1.3164478040473886,0.0011740853803963382,0.0011129220833397142,0.0031568921984404925,0.00305613923070736,0.008500038892883905
1.328741708758112,0.0011961157630354423,0.0011338045968444597,0.003216129985474513,0.0031134873318579594,0.008659537677212375
1.3410356134688353,0.0012183508923325728,0.001154881181094423,0.0032759184036617733,0.0031713685327270434,0.008820519009815812
1.3533295181795584,0.0012407907673950107,0.0011761518350255967,0.0033362574529648037,0.0032297828342084294,0.00898298288959384
1.3656234228902817,0.0012634353873220473,0.0011976165575648438,0.0033971471333458015,0.0032887302372116172,0.00914692931544431
1.377917327601005,0.001286284751204037,0.0012192753476293723,0.003458587444764075,0.003348210742649238,0.009312358286246722
1.3902112323117282,0.0013093388581217951,0.001241128204125081,0.003520578387181588,0.0034082243514456574,0.00947926980087412
1.4025051370224515,0.0013325977071494285,0.0012631751259494838,0.003583119960556175,0.0034687710645302555,0.009647663858185343
1.4147990417331746,0.0013560612973522158,0.0012854161119915115,0.0036462121648498766,0.003529850882846866,0.00981754045704047
1.427092946443898,0.0013797296277885086,0.0013078511611283735,0.003709855000019763,0.003591463807339575,0.00998889959627622
1.4393868511546213,0.0014036026975068928,0.0013304802722248995,0.003774048466027452,0.00365360983896184,0.010161741274721085
1.4516807558653444,0.0014276805055482777,0.0013533034441432872,0.0038387925628310523,0.0037162889786848245,0.010336065491207441
1.4639746605760677,0.0014519630509446941,0.0013763206757290587,0.0039040872903874885,0.0037795012274765565,0.010511872244537798
1.476268565286791,0.0014764503327217495,0.0013995319658227615,0.003969932648654998,0.0038432465863184316,0.01068916153351794
1.4885624699975142,0.0015011423498962504,0.0014229373132514675,0.004036328637593219,0.003907525056198835,0.010867933356939773
1.5008563747082375,0.0015260391014734274,0.0014465367168339832,0.004103275257158854,0.003972336638117518,0.011048187713583783
1.5131502794189609,0.001551140586455818,0.001470330175380869,0.004170772507307383,0.004037681333078769,0.01122992460222284
1.525444184129684,0.001576446803833719,0.0014943176876905822,0.0042388203879947005,0.004103559142095271,0.011413144021614273
1.5377380888404073,0.0016019577525903115,0.0015184992525520363,0.004307418899180076,0.004169970066192036,0.01159784597051446
1.5500319935511306,0.0016276734317008795,0.0015428748687459418,0.004376568040815768,0.004236914106396028,0.011784030447658618
1.5623258982618538,0.0016535938401336342,0.0015674445350422712,0.0044462678128618085,0.004304391263749086,0.0119716974517868
1.574619802972577,0.0016797189768442127,0.0015922082502003263,0.004516518215268813,0.004372401539297271,0.012160846981610622
1.5869137076833004,0.001706048840786226,0.0016171660129710918,0.0045873192479962445,0.004440944934096708,0.01235147903585027
1.5992076123940235,0.0017325834308998679,0.0016423178220944436,0.004658670910994043,0.004510021449207757,0.012543593613196112
1.6115015171047469,0.0017593227461200518,0.0016676636763035182,0.0047305732042165006,0.004579631085705252,0.012737190712345324
1.6237954218154702,0.0017862667853728049,0.0016932035743149844,0.004803026127621294,0.004649773844665861,0.012932270331974943
1.6360893265261933,0.0018134155475742037,0.0017189375148428101,0.004876029681158056,0.004720449727180005,0.013128832470755074
1.6483832312369167,0.001840769031635128,0.0017448654965889609,0.004949583864784243,0.00479165873434872,0.013326877127357051
1.66067713594764,0.0018683272364575518,0.0017709875182445522,0.005023688678445592,0.004863400867266875,0.013526404300414572
1.672971040658363,0.0018960901609313028,0.0017973035784897458,0.005098344122105512,0.004935676127060285,0.013727413988586845
1.6852649453690864,0.0019240578039415397,0.0018238136759986254,0.005173550195703198,0.00500848451484125,0.013929906190484613
1.6975588500798098,0.0019522301643668178,0.0018505178094320354,0.005249306899197055,0.005081826031739879,0.014133880904735788
1.709852754790533,0.0019806072410761314,0.001877415977442054,0.005325614232539063,0.005155700678892523,0.014339338129949772
1.7221466595012562,0.002009189032927686,0.0019045081786741068,0.00540247219567811,0.005230108457452383,0.014546277864732286
1.7344405642119796,0.0020379755387721263,0.001931794411757443,0.005479880788563172,0.005305049368566239,0.014754700107658981
1.7467344689227027,0.0020669667574528317,0.0019592746753187224,0.005557840011145129,0.00538052341340545,0.014964604857322133
1.759028373633426,0.002096162687806807,0.001986948967966573,0.005636349863379776,0.0054565305931350856,0.015175992112288242
1.7713222783441491,0.002125563328660324,0.0020148172883108126,0.005715410345207035,0.005533070908937561,0.015388861871115732
1.7836161830548725,0.0021551686788360376,0.0020428796349398265,0.005795021456585441,0.005610144361994519,0.015603214132355825
1.7959100877655958,0.002184978737138238,0.00207113600643894,0.005875183197454381,0.005687750953505412,0.01581904889453697
1.808203992476319,0.0022149935023709367,0.0020995864013823662,0.005955895567770108,0.005765890684678652,0.016036366156202065
1.8204978971870422,0.0022452129733322446,0.002128230818334531,0.006037158567477257,0.005844563556718734,0.016255165915862766
1.8327918018977656,0.0022756371488028807,0.0021570692558508762,0.006118972196522892,0.005923769570854128,0.016475448172030775
1.8450857066084887,0.002306266027568628,0.0021861017124724753,0.006201336454859572,0.006003508728300353,0.01669721292320103
1.857379611319212,0.002337099608390308,0.002215328186740347,0.006284251342426084,0.006083781030311434,0.016920460167868173
1.8696735160299354,0.002368137890031512,0.002244748677175862,0.006367716859172393,0.006164586478123543,0.01714518990450331
1.8819674207406585,0.0023993808712475086,0.0022743631822936374,0.006451733005048459,0.006245925072992691,0.017371402131582295
1.8942613254513818,0.002430828550783474,0.0023041717006022917,0.0065362997799943,0.006327796816177064,0.01759909684755713
