Omega,P_E,P_A,P_B,P_C,P_total
0.001,26895.999999708816,27888.999999701224,27224.999999715164,27555.99999963305,109565.99999875826
0.01329390471072326,26895.999948540008,27888.9999471997,27224.999949661462,27555.999935150197,109565.99978055136
0.02558780942144652,26895.99980935263,27888.99980438706,27224.999813507384,27555.999759746483,109565.99918699355
0.03788171413216978,26895.999582146702,27888.99957126336,27224.999591252934,27555.999473421904,109565.9982180849
0.05017561884289304,26895.99926692223,27888.999247828586,27224.999282898098,27555.999076176475,109565.9968738254
0.0624695235536163,26895.998863679168,27888.998834082722,27224.998888442868,27555.9985680102,109565.99515421496
0.07476342826433956,26895.998372417584,27888.998330025803,27224.99840788728,27555.99794892308,109565.99305925374
0.08705733297506282,26895.997793137445,27888.997735657817,27224.99784123132,27555.997218915127,109565.99058894171
0.09935123768578608,26895.997125838767,27888.997050978767,27224.997188475005,27555.996377986346,109565.98774327889
0.11164514239650933,26895.99637052157,27888.996275988673,27224.99644961832,27555.995426136742,109565.98452226531
0.1239390471072326,26895.995527185853,27888.99541068753,27224.995624661293,27555.994363366342,109565.980925901
0.13623295181795586,26895.994595831602,27888.994455075346,27224.994713603923,27555.99318967515,109565.97695418603
0.1485268565286791,26895.99357645887,27888.993409152135,27224.99371644622,27555.991905063176,109565.97260712039
0.16082076123940237,26895.992469067634,27888.992272917912,27224.992633188187,27555.990509530435,109565.96788470418
0.17311466595012565,26895.991273657924,27888.991046372685,27224.99146382986,27555.98900307696,109565.96278693744
0.1854085706608489,26895.98999022975,27888.989729516463,27224.99020837123,27555.98738570276,109565.9573138202
0.19770247537157215,26895.988618783125,27888.98832234927,27224.98886681231,27555.985657407844,109565.95146535255
0.2099963800822954,26895.987159318058,27888.986824871103,27224.98743915311,27555.98381819226,109565.94524153453
0.22229028479301866,26895.98561183457,27888.985237081975,27224.985925393656,27555.98186805599,109565.9386423662
0.23458418950374194,26895.983976332685,27888.983558981905,27224.984325533962,27555.979806999105,109565.93166784766
0.2468780942144652,26895.982252812406,27888.981790570928,27224.982639574024,27555.977635021598,109565.92431797895
0.25917199892518844,26895.98044127377,27888.979931849033,27224.980867513877,27555.975352123496,109565.91659276017
0.2714659036359117,26895.978541716788,27888.977982816275,27224.97900935354,27555.97295830484,109565.90849219143
0.28375980834663495,26895.976554141464,27888.97594347263,27224.977065093033,27555.970453565653,109565.90001627278
0.2960537130573582,26895.974478547854,27888.97381381814,27224.97503473236,27555.967837905962,109565.89116500432
0.3083476177680815,26895.97231493596,27888.971593852828,27224.97291827154,27555.96511132582,109565.88193838614
0.32064152247880473,26895.970063305806,27888.969283576705,27224.970715710624,27555.962273825233,109565.87233641838
0.332935427189528,26895.96772365742,27888.96688298982,27224.9684270496,27555.959325404256,109565.8623591011
0.3452293319002513,26895.965295990827,27888.964392092133,27224.966052288517,27555.956266062905,109565.85200643439
0.3575232366109745,26895.96278030606,27888.96181088375,27224.963591427364,27555.95309580123,109565.8412784184
0.3698171413216978,26895.960176603137,27888.959139364633,27224.961044466203,27555.94981461928,109565.83017505326
0.382111046032421,26895.957484882096,27888.956377534847,27224.958411405034,27555.94642251706,109565.81869633903
0.3944049507431443,26895.954705142958,27888.9535253944,27224.955692243897,27555.94291949465,109565.8068422759
0.4066988554538676,26895.95183738575,27888.950582943326,27224.95288698281,27555.939305552078,109565.79461286396
0.4189927601645908,26895.948881610522,27888.947550181645,27224.949995621817,27555.93558068938,109565.78200810336
0.4312866648753141,26895.945837817297,27888.944427109393,27224.947018160918,27555.931744906615,109565.76902799422
0.4435805695860373,26895.9427060061,27888.941213726586,27224.94395460017,27555.927798203822,109565.75567253667
0.4558744742967606,26895.939486176972,27888.937910033284,27224.9408049396,27555.923740581064,109565.74194173093
0.46816837900748387,26895.93617832996,27888.93451602951,27224.937569179212,27555.919572038358,109565.72783557704
0.4804622837182071,26895.93278246507,27888.931031715278,27224.934247319063,27555.91529257579,109565.71335407521
0.4927561884289304,26895.929298582374,27888.927457090635,27224.93083935917,27555.910902193384,109565.69849722557
0.5050500931396537,26895.92572668189,27888.923792155612,27224.927345299588,27555.90640089123,109565.68326502832
0.5173439978503769,26895.92206676367,27888.920036910265,27224.92376514035,27555.90178866934,109565.66765748363
0.5296379025611001,26895.918318827746,27888.916191354598,27224.920098881474,27555.897065527795,109565.65167459162
0.5419318072718234,26895.91448287415,27888.91225548866,27224.916346522998,27555.89223146664,109565.63531635245
0.5542257119825467,26895.910558902942,27888.908229312507,27224.912508064972,27555.887286485955,109565.61858276637
0.5665196166932699,26895.906546914157,27888.90411282616,27224.90858350742,27555.882230585783,109565.60147383352
0.5788135214039932,26895.902446907836,27888.899906029652,27224.90457285039,27555.8770637662,109565.58398955407
0.5911074261147164,26895.898258884037,27888.895608923034,27224.900476093928,27555.871786027234,109565.56612992824
0.6034013308254397,26895.893982842794,27888.891221506354,27224.89629323806,27555.866397369005,109565.54789495622
0.615695235536163,26895.889618784153,27888.886743779647,27224.892024282828,27555.86089779154,109565.52928463818
0.6279891402468862,26895.885166708176,27888.882175742972,27224.887669228287,27555.85528729491,109565.51029897433
0.6402830449576095,26895.8806266149,27888.877517396337,27224.88322807447,27555.849565879187,109565.4909379649
0.6525769496683328,26895.875998504373,27888.87276873982,27224.878700821424,27555.843733544454,109565.47120161008
0.664870854379056,26895.871282376662,27888.86792977345,27224.874087469198,27555.837790290763,109565.45108991007
0.6771647590897792,26895.866478231794,27888.86300049729,27224.869388017825,27555.8317361182,109565.4306028651
0.6894586638005026,26895.861586069852,27888.85798091137,27224.864602467365,27555.825571026835,109565.40974047541
0.7017525685112258,26895.85660589086,27888.85287101575,27224.859730817858,27555.81929501674,109565.38850274122
0.714046473221949,26895.851537694896,27888.847670810475,27224.854773069357,27555.81290808799,109565.36688966272
0.7263403779326723,26895.846381481995,27888.8423802956,27224.849729221904,27555.80641024067,109565.34490124017
0.7386342826433956,26895.841137252235,27888.836999471154,27224.844599275555,27555.799801474855,109565.32253747381
0.7509281873541188,26895.835805005667,27888.83152833723,27224.83938323035,27555.793081790634,109565.29979836388
0.763222092064842,26895.830384742338,27888.825966893863,27224.834081086356,27555.78625118809,109565.27668391063
0.7755159967755654,26895.82487646233,27888.820315141093,27224.828692843632,27555.779309667283,109565.25319411434
0.7878099014862886,26895.819280165673,27888.81457307898,27224.823218502203,27555.772257228316,109565.22932897517
0.8001038061970118,26895.813595852458,27888.808740707587,27224.817658062133,27555.765093871276,109565.20508849346
0.8123977109077352,26895.807823522737,27888.802818026983,27224.812011523496,27555.757819596245,109565.18047266945
0.8246916156184584,26895.80196317657,27888.79680503719,27224.80627888632,27555.750434403333,109565.15548150342
0.8369855203291816,26895.796014814034,27888.7907017383,27224.800460150687,27555.74293829259,109565.13011499561
0.849279425039905,26895.789978435172,27888.78450813036,27224.79455531666,27555.735331264143,109565.10437314634
0.8615733297506282,26895.783854040063,27888.778224213438,27224.788564384253,27555.727613318064,109565.07825595583
0.8738672344613514,26895.777641628785,27888.771849987566,27224.782487353557,27555.719784454464,109565.05176342439
0.8861611391720746,26895.771341201395,27888.76538545283,27224.776324224636,27555.71184467342,109565.02489555228
0.898455043882798,26895.764952757952,27888.758830609288,27224.770074997534,27555.703793975048,109564.99765233982
0.9107489485935212,26895.75847629855,27888.752185457022,27224.763739672326,27555.69563235944,109564.97003378734
0.9230428533042444,26895.751911823234,27888.74544999606,27224.757318249078,27555.687359826676,109564.94203989505
0.9353367580149677,26895.7452593321,27888.73862422649,27224.750810727837,27555.678976376887,109564.91367066331
0.947630662725691,26895.73851882523,27888.73170814838,27224.744217108677,27555.670482010166,109564.88492609246
0.9599245674364142,26895.73169030265,27888.724701761792,27224.737537391673,27555.66187672661,109564.85580618272
0.9722184721471375,26895.724773764487,27888.71760506678,27224.730771576866,27555.65316052632,109564.82631093446
0.9845123768578607,26895.7177692108,27888.71041806344,27224.723919664335,27555.64433340943,109564.796440348
0.996806281568584,26895.710676641647,27888.703140751823,27224.71698165416,27555.63539537602,109564.76619442366
1.0091001862793072,26895.703496057125,27888.695773132007,27224.7099575464,27555.626346426197,109564.73557316174
1.0213940909900303,26895.696227457316,27888.68831520407,27224.70284734113,27555.617186560106,109564.70457656262
1.0336879957007536,26895.688870842285,27888.68076696806,27224.6956510384,27555.607915777808,109564.67320462657
1.045981900411477,26895.68142621213,27888.673128424067,27224.6883686383,27555.59853407946,109564.64145735397
1.0582758051222,26895.673893566924,27888.665399572175,27224.681000140914,27555.58904146515,109564.60933474517
1.0705697098329234,26895.666272906754,27888.65758041244,27224.673545546284,27555.579437935026,109564.5768368005
1.0828636145436468,26895.658564231693,27888.649670944935,27224.6660048545,27555.569723489163,109564.5439635203
1.0951575192543699,26895.65076754184,27888.64167116976,27224.65837806563,27555.559898127714,109564.51071490494
1.1074514239650932,26895.642882837274,27888.63358108697,27224.65066517977,27555.54996185078,109564.4770909548
1.1197453286758166,26895.634910118082,27888.625400696674,27224.642866196973,27555.53991465849,109564.44309167023
1.1320392333865397,26895.62684938435,27888.61712999892,27224.63498111732,27555.529756550965,109564.40871705156
1.144333138097263,26895.618700636187,27888.60876899378,27224.627009940894,27555.51948752833,109564.3739670992
1.1566270428079863,26895.61046387365,27888.60031768137,27224.61895266777,27555.50910759071,109564.3388418135
1.1689209475187095,26895.60213909685,27888.591776061763,27224.610809298036,27555.498616738238,109564.3033411949
1.1812148522294328,26895.59372630587,27888.58314413502,27224.602579831768,27555.488014971022,109564.26746524368
1.1935087569401561,26895.58522550081,27888.574421901256,27224.59426426904,27555.47730228922,109564.23121396032
1.2058026616508792,26895.576636681766,27888.565609360532,27224.585862609943,27555.46647869295,109564.19458734519
1.2180965663616026,26895.567959848828,27888.556706512936,27224.577374854565,27555.455544182336,109564.15758539866
1.230390471072326,26895.559195002064,27888.547713358545,27224.56880100298,27555.444498757523,109564.12020812112
1.242684375783049,26895.55034214164,27888.53862989748,27224.560141055266,27555.433342418637,109564.08245551302
1.2549782804937724,26895.541401267583,27888.529456129818,27224.551395011527,27555.42207516583,109564.04432757475
1.2672721852044957,26895.532372380025,27888.520192055625,27224.542562871833,27555.41069699922,109564.00582430672
1.2795660899152188,26895.52325547906,27888.510837674996,27224.533644636285,27555.399207918963,109563.96694570931
1.2918599946259421,26895.5140505648,27888.501392988044,27224.52464030496,27555.387607925186,109563.927691783
1.3041538993366655,26895.504757637325,27888.491857994843,27224.51554987796,27555.37589701804,109563.88806252816
1.3164478040473886,26895.495376696745,27888.482232695496,27224.506373355376,27555.364075197664,109563.84805794529
1.328741708758112,26895.485907743183,27888.47251709008,27224.497110737273,27555.3521424642,109563.80767803473
1.3410356134688353,26895.476350776713,27888.462711178705,27224.487762023757,27555.340098817804,109563.76692279697
1.3533295181795584,26895.46670579745,27888.45281496146,27224.478327214936,27555.327944258617,109563.72579223246
1.3656234228902817,26895.456972805518,27888.442828438438,27224.468806310884,27555.315678786785,109563.68428634162
1.377917327601005,26895.447151801007,27888.432751609744,27224.45919931171,27555.30330240245,109563.6424051249
1.3902112323117282,26895.437242784017,27888.422584475466,27224.44950621749,27555.2908151058,109563.60014858277
1.4025051370224515,26895.427245754683,27888.412327035723,27224.439727028333,27555.278216896935,109563.55751671566
1.4147990417331746,26895.417160713103,27888.40197929058,27224.429861744316,27555.26550777605,109563.51450952404
1.427092946443898,26895.40698765938,27888.391541240155,27224.419910365577,27555.252687743283,109563.4711270084
1.4393868511546213,26895.396726593637,27888.38101288456,27224.409872892185,27555.2397567988,109563.42736916919
1.4516807558653444,26895.386377515966,27888.370394223886,27224.399749324264,27555.226714942743,109563.38323600686
1.4639746605760677,26895.375940426526,27888.35968525824,27224.389539661875,27555.213562175286,109563.33872752193
1.476268565286791,26895.36541532538,27888.34888598773,27224.379243905125,27555.20029849658,109563.29384371481
1.4885624699975142,26895.35480221269,27888.33799641244,27224.368862054158,27555.186923906796,109563.24858458608
1.5008563747082375,26895.344101088525,27888.327016532494,27224.358394109033,27555.173438406087,109563.20295013614
1.5131502794189609,26895.333311953047,27888.315946348008,27224.34784006987,27555.159841994642,109563.15694036556
1.525444184129684,26895.322434806356,27888.304785859054,27224.33719993678,27555.146134672603,109563.11055527479
1.5377380888404073,26895.311469648568,27888.293535065786,27224.32647370986,27555.13231644014,109563.06379486436
1.5500319935511306,26895.30041647982,27888.28219396827,27224.315661389228,27555.118387297432,109563.01665913475
1.5623258982618538,26895.289275300205,27888.270762566644,27224.30476297495,27555.10434724464,109562.96914808644
1.574619802972577,26895.278046109874,27888.259240861003,27224.293778467192,27555.09019628194,109562.92126172001
1.5869137076833004,26895.266728908937,27888.247628851474,27224.282707866016,27555.075934409502,109562.87300003592
1.5992076123940235,26895.25532369754,27888.235926538164,27224.271551171558,27555.06156162752,109562.82436303477
1.6115015171047469,26895.243830475763,27888.224133921165,27224.26030838392,27555.04707793613,109562.77535071698
1.6237954218154702,26895.232249243774,27888.212251000623,27224.24897950322,27555.032483335544,109562.72596308315
1.6360893265261933,26895.22058000168,27888.20027777665,27224.237564529565,27555.017777825924,109562.67620013382
1.6483832312369167,26895.20882274963,27888.18821424934,27224.226063463047,27555.002961407463,109562.62606186948
1.66067713594764,26895.19697748773,27888.17606041883,27224.214476303812,27554.988034080314,109562.57554829068
1.672971040658363,26895.185044216127,27888.163816285232,27224.20280305196,27554.972995844702,109562.52465939801
1.6852649453690864,26895.17302293495,27888.151481848654,27224.191043707615,27554.957846700774,109562.47339519198
1.6975588500798098,26895.160913644326,27888.139057109234,27224.179198270882,27554.942586648733,109562.42175567317
1.709852754790533,26895.148716344374,27888.126542067082,27224.16726674189,27554.92721568876,109562.3697408421
1.7221466595012562,26895.13643103526,27888.113936722315,27224.15524912074,27554.911733821045,109562.31735069936
1.7344405642119796,26895.124057717112,27888.10124107506,27224.143145407557,27554.896141045774,109562.2645852455
1.7467344689227027,26895.111596390052,27888.088455125453,27224.130955602468,27554.880437363157,109562.21144448113
1.759028373633426,26895.099047054213,27888.0755788736,27224.1186797056,27554.86462277335,109562.15792840677
1.7713222783441491,26895.086409709762,27888.06261231962,27224.106317717058,27554.848697276568,109562.104037023
1.7836161830548725,26895.073684356812,27888.04955546366,27224.093869636974,27554.83266087301,109562.04977033046
1.7959100877655958,26895.060870995516,27888.03640830584,27224.08133546546,27554.81651356287,109561.99512832968
1.808203992476319,26895.047969626004,27888.0231708463,27224.06871520265,27554.800255346338,109561.94011102131
1.8204978971870422,26895.03498024843,27888.009843085136,27224.056008848675,27554.78388622361,109561.88471840585
1.8327918018977656,26895.02190286293,27887.996425022495,27224.043216403647,27554.767406194893,109561.82895048396
1.8450857066084887,26895.008737469667,27887.982916658508,27224.03033786769,27554.7508152604,109561.77280725626
1.857379611319212,26894.995484068757,27887.969317993302,27224.017373240946,27554.734113420312,109561.71628872333
1.8696735160299354,26894.982142660356,27887.955629027016,27224.004322523535,27554.717300674845,109561.65939488576
1.8819674207406585,26894.968713244623,27887.94184975977,27223.991185715593,27554.700377024208,109561.60212574419
1.8942613254513818,26894.9551958217,27887.927980191726,27223.977962817233,27554.683342468583,109561.54448129924
1.9065552301621052,26894.941590391718,27887.914020322998,27223.964653828603,27554.666197008206,109561.48646155153
1.9188491348728283,26894.927896954854,27887.899970153696,27223.951258749832,27554.64894064329,109561.42806650168
1.9311430395835516,26894.914115511252,27887.885829683997,27223.93777758105,27554.63157337403,109561.36929615034
1.943436944294275,26894.900246061054,27887.87159891403,27223.924210322377,27554.614095200646,109561.31015049812
1.955730849004998,26894.886288604415,27887.85727784391,27223.91055697397,27554.59650612333,109561.25062954561
1.9680247537157214,26894.872243141497,27887.84286647381,27223.89681753596,27554.578806142337,109561.19073329361
1.9803186584264447,26894.85810967244,27887.82836480386,27223.882992008468,27554.56099525784,109561.1304617426
1.9926125631371678,26894.843888197433,27887.813772834168,27223.869080391636,27554.543073470097,109561.06981489333
2.004906467847891,26894.82957871659,27887.799090564906,27223.855082685615,27554.525040779306,109561.00879274642
2.0172003725586145,26894.815181230093,27887.784317996222,27223.840998890526,27554.506897185693,109560.94739530253
2.029494277269338,26894.800695738108,27887.76945512824,27223.82682900652,27554.488642689466,109560.88562256233
2.0417881819800607,26894.78612224077,27887.754501961113,27223.81257303373,27554.470277290875,109560.82347452649
2.054082086690784,26894.771460738248,27887.73945849498,27223.79823097229,27554.4518009901,109560.76095119561
2.0663759914015074,26894.756711230715,27887.72432473,27223.78380282237,27554.433213787426,109560.69805257051
2.0786698961122307,26894.741873718336,27887.709100666318,27223.769288584088,27554.41451568304,109560.63477865177
2.090963800822954,26894.72694820125,27887.693786304066,27223.754688257584,27554.395706677176,109560.57112944007
2.1032577055336774,26894.71193467965,27887.6783816434,27223.740001843023,27554.37678677008,109560.50710493616
2.1155516102444003,26894.696833153677,27887.66288668447,27223.725229340536,27554.357755961973,109560.44270514065
2.1278455149551236,26894.681643623517,27887.647301427434,27223.710370750287,27554.33861425306,109560.3779300543
2.140139419665847,26894.66636608933,27887.631625872444,27223.695426072398,27554.319361643633,109560.3127796778
2.1524333243765703,26894.651000551276,27887.61586001963,27223.680395307027,27554.299998133883,109560.2472540118
2.1647272290872936,26894.63554700954,27887.600003869175,27223.665278454322,27554.28052372407,109560.18135305711
2.177021133798017,26894.620005464272,27887.584057421205,27223.650075514437,27554.260938414416,109560.11507681433
